#===============================================================================
#   Lip Height Numerical Energy  Relative Error Analytical Energy Analyt. Enrgy. Error
#===============================================================================
  0.01400000 0.000000001502183   0.01256963 0.000000001483544   0.01256372
  0.01378600 0.000000001500880   0.01169115 0.000000001483544   0.01168534
  0.01357200 0.000000001499635   0.01085212 0.000000001483544   0.01084640
  0.01335800 0.000000001498935   0.01038041 0.000000001483544   0.01037478
  0.01314400 0.000000001498134   0.00984035 0.000000001483544   0.00983482
  0.01293000 0.000000001497243   0.00923990 0.000000001483543   0.00923446
  0.01271600 0.000000001496755   0.00891087 0.000000001483543   0.00890552
  0.01250200 0.000000001496149   0.00850232 0.000000001483543   0.00849707
  0.01228800 0.000000001495591   0.00812620 0.000000001483543   0.00812104
  0.01207400 0.000000001495085   0.00778529 0.000000001483543   0.00778022
  0.01186000 0.000000001494475   0.00737426 0.000000001483543   0.00736928
  0.01164600 0.000000001494452   0.00735824 0.000000001483543   0.00735335
  0.01143200 0.000000001494138   0.00714711 0.000000001483543   0.00714231
  0.01121800 0.000000001493740   0.00687820 0.000000001483542   0.00687350
  0.01100400 0.000000001493404   0.00665184 0.000000001483542   0.00664722
  0.01079000 0.000000001492980   0.00636595 0.000000001483542   0.00636143
  0.01057600 0.000000001492739   0.00620391 0.000000001483542   0.00619948
  0.01036200 0.000000001492511   0.00604992 0.000000001483542   0.00604557
  0.01014800 0.000000001492248   0.00587287 0.000000001483542   0.00586862
  0.00993400 0.000000001491990   0.00569858 0.000000001483542   0.00569442
  0.00972000 0.000000001491749   0.00553680 0.000000001483541   0.00553272
  0.00950600 0.000000001491422   0.00531580 0.000000001483541   0.00531182
  0.00929200 0.000000001491323   0.00524913 0.000000001483541   0.00524523
  0.00907800 0.000000001491033   0.00505413 0.000000001483541   0.00505033
  0.00886400 0.000000001490796   0.00489413 0.000000001483541   0.00489042
  0.00865000 0.000000001490633   0.00478443 0.000000001483541   0.00478080
  0.00843600 0.000000001490735   0.00485276 0.000000001483541   0.00484923
  0.00822200 0.000000001490546   0.00472552 0.000000001483541   0.00472208
  0.00800800 0.000000001490370   0.00460668 0.000000001483540   0.00460333
  0.00779400 0.000000001490197   0.00449019 0.000000001483540   0.00448693
  0.00758000 0.000000001490077   0.00440959 0.000000001483540   0.00440642
  0.00736600 0.000000001489915   0.00430052 0.000000001483540   0.00429744
  0.00715200 0.000000001489783   0.00421105 0.000000001483540   0.00420805
  0.00693800 0.000000001489654   0.00412411 0.000000001483540   0.00412121
  0.00672400 0.000000001489449   0.00398599 0.000000001483540   0.00398317
  0.00651000 0.000000001489297   0.00388375 0.000000001483539   0.00388102
  0.00629600 0.000000001489166   0.00379564 0.000000001483539   0.00379301
  0.00608200 0.000000001489044   0.00371309 0.000000001483539   0.00371055
  0.00586800 0.000000001489025   0.00370050 0.000000001483539   0.00369804
  0.00565400 0.000000001488904   0.00361843 0.000000001483539   0.00361607
  0.00544000 0.000000001488785   0.00353866 0.000000001483539   0.00353639
  0.00522600 0.000000001488672   0.00346240 0.000000001483539   0.00346022
  0.00501200 0.000000001488558   0.00338545 0.000000001483539   0.00338335
  0.00479800 0.000000001488451   0.00331351 0.000000001483538   0.00331150
  0.00458400 0.000000001488348   0.00324400 0.000000001483538   0.00324208
  0.00437000 0.000000001488243   0.00317344 0.000000001483538   0.00317162
  0.00415600 0.000000001488148   0.00310887 0.000000001483538   0.00310714
  0.00394200 0.000000001488052   0.00304450 0.000000001483538   0.00304285
  0.00372800 0.000000001487959   0.00298171 0.000000001483538   0.00298015
  0.00351400 0.000000001487865   0.00291864 0.000000001483538   0.00291717
  0.00330000 0.000000001487779   0.00286052 0.000000001483537   0.00285914
  0.00308600 0.000000001487693   0.00280224 0.000000001483537   0.00280095
  0.00287200 0.000000001487581   0.00272721 0.000000001483537   0.00272601
  0.00265800 0.000000001487689   0.00280010 0.000000001483537   0.00279899
  0.00244400 0.000000001487610   0.00274657 0.000000001483537   0.00274555
  0.00223000 0.000000001487529   0.00269186 0.000000001483537   0.00269093
  0.00201600 0.000000001487482   0.00266027 0.000000001483537   0.00265943
  0.00180200 0.000000001487411   0.00261242 0.000000001483537   0.00261167
  0.00158800 0.000000001487011   0.00234266 0.000000001483536   0.00234199
  0.00137400 0.000000001486940   0.00229456 0.000000001483536   0.00229398
  0.00116000 0.000000001486854   0.00223720 0.000000001483536   0.00223672
  0.00094600 0.000000001486835   0.00222441 0.000000001483536   0.00222402
  0.00073200 0.000000001486740   0.00215993 0.000000001483536   0.00215963
  0.00051800 0.000000001486997   0.00233335 0.000000001483536   0.00233314
  0.00030400 0.000000001486931   0.00228893 0.000000001483536   0.00228881
  0.00009000 0.000000001486568   0.00204414 0.000000001483536   0.00204410
 -0.00012400 0.000000001486793   0.00219592 0.000000001483535   0.00219597
 -0.00033800 0.000000001486817   0.00221203 0.000000001483535   0.00221217
 -0.00055200 0.000000001486749   0.00216633 0.000000001483535   0.00216656
 -0.00076600 0.000000001486398   0.00192982 0.000000001483535   0.00193014
 -0.00098000 0.000000001486336   0.00188774 0.000000001483535   0.00188815
 -0.00119400 0.000000001486284   0.00185259 0.000000001483535   0.00185309
 -0.00140800 0.000000001486229   0.00181595 0.000000001483535   0.00181654
 -0.00162200 0.000000001486380   0.00191713 0.000000001483534   0.00191780
 -0.00183600 0.000000001486123   0.00174409 0.000000001483534   0.00174486
 -0.00205000 0.000000001486073   0.00171020 0.000000001483534   0.00171106
 -0.00226400 0.000000001486023   0.00167650 0.000000001483534   0.00167745
 -0.00247800 0.000000001485978   0.00164675 0.000000001483534   0.00164778
 -0.00269200 0.000000001485932   0.00161515 0.000000001483534   0.00161627
 -0.00290600 0.000000001486058   0.00170012 0.000000001483534   0.00170133
 -0.00312000 0.000000001485834   0.00154963 0.000000001483534   0.00155093
 -0.00333400 0.000000001485789   0.00151928 0.000000001483533   0.00152067
 -0.00354800 0.000000001485746   0.00148989 0.000000001483533   0.00149137
 -0.00376200 0.000000001485790   0.00151982 0.000000001483533   0.00152139
 -0.00397600 0.000000001485754   0.00149527 0.000000001483533   0.00149693
 -0.00419000 0.000000001485707   0.00146379 0.000000001483533   0.00146554
 -0.00440400 0.000000001485734   0.00148206 0.000000001483533   0.00148390
 -0.00461800 0.000000001485660   0.00143178 0.000000001483533   0.00143371
 -0.00483200 0.000000001485637   0.00141665 0.000000001483532   0.00141866
 -0.00504600 0.000000001485607   0.00139604 0.000000001483532   0.00139814
 -0.00526000 0.000000001485567   0.00136921 0.000000001483532   0.00137140
 -0.00547400 0.000000001485517   0.00133585 0.000000001483532   0.00133813
 -0.00568800 0.000000001485485   0.00131393 0.000000001483532   0.00131630
 -0.00590200 0.000000001485446   0.00128804 0.000000001483532   0.00129050
 -0.00611600 0.000000001485401   0.00125727 0.000000001483532   0.00125982
 -0.00633000 0.000000001485366   0.00123405 0.000000001483532   0.00123668
 -0.00654400 0.000000001485156   0.00109202 0.000000001483531   0.00109475
 -0.00675800 0.000000001485123   0.00107039 0.000000001483531   0.00107321
 -0.00697200 0.000000001485088   0.00104624 0.000000001483531   0.00104915
 -0.00718600 0.000000001485219   0.00113463 0.000000001483531   0.00113762
 -0.00740000 0.000000001485185   0.00111208 0.000000001483531   0.00111516
 -0.00761400 0.000000001485147   0.00108652 0.000000001483531   0.00108969
 -0.00782800 0.000000001484960   0.00095993 0.000000001483531   0.00096319
 -0.00804200 0.000000001484943   0.00094909 0.000000001483530   0.00095244
 -0.00825600 0.000000001484910   0.00092681 0.000000001483530   0.00093025
 -0.00847000 0.000000001484878   0.00090514 0.000000001483530   0.00090867
 -0.00868400 0.000000001484846   0.00088371 0.000000001483530   0.00088732
 -0.00889800 0.000000001484806   0.00085631 0.000000001483530   0.00086002
 -0.00911200 0.000000001485111   0.00106185 0.000000001483530   0.00106564
 -0.00932600 0.000000001485158   0.00109376 0.000000001483530   0.00109765
 -0.00954000 0.000000001485047   0.00101863 0.000000001483530   0.00102260
 -0.00975400 0.000000001485018   0.00099962 0.000000001483529   0.00100368
 -0.00996800 0.000000001484699   0.00078452 0.000000001483529   0.00078867
 -0.01018200 0.000000001484668   0.00076360 0.000000001483529   0.00076784
 -0.01039600 0.000000001484641   0.00074515 0.000000001483529   0.00074948
 -0.01061000 0.000000001484615   0.00072773 0.000000001483529   0.00073214
 -0.01082400 0.000000001484584   0.00070676 0.000000001483529   0.00071127
 -0.01103800 0.000000001484600   0.00071787 0.000000001483529   0.00072246
 -0.01125200 0.000000001484573   0.00069939 0.000000001483529   0.00070407
 -0.01146600 0.000000001484564   0.00069352 0.000000001483528   0.00069829
 -0.01168000 0.000000001484519   0.00066279 0.000000001483528   0.00066765
 -0.01189400 0.000000001484762   0.00082678 0.000000001483528   0.00083173
 -0.01210800 0.000000001484465   0.00062687 0.000000001483528   0.00063190
 -0.01232200 0.000000001484458   0.00062176 0.000000001483528   0.00062688
 -0.01253600 0.000000001484452   0.00061764 0.000000001483528   0.00062285
 -0.01275000 0.000000001484426   0.00060017 0.000000001483528   0.00060548
 -0.01296400 0.000000001484399   0.00058221 0.000000001483527   0.00058761
 -0.01317800 0.000000001484373   0.00056487 0.000000001483527   0.00057036
 -0.01339200 0.000000001484725   0.00080182 0.000000001483527   0.00080739
 -0.01360600 0.000000001484699   0.00078454 0.000000001483527   0.00079020
 -0.01382000 0.000000001484672   0.00076583 0.000000001483527   0.00077158
 -0.01403400 0.000000001484263   0.00049024 0.000000001483527   0.00049607
 -0.01424800 0.000000001484235   0.00047128 0.000000001483527   0.00047721
 -0.01446200 0.000000001484211   0.00045535 0.000000001483527   0.00046137
 -0.01467600 0.000000001484187   0.00043901 0.000000001483526   0.00044511
 -0.01489000 0.000000001484165   0.00042409 0.000000001483526   0.00043028
 -0.01510400 0.000000001484359   0.00055529 0.000000001483526   0.00056157
 -0.01531800 0.000000001484334   0.00053805 0.000000001483526   0.00054442
 -0.01553200 0.000000001484310   0.00052222 0.000000001483526   0.00052867
 -0.01574600 0.000000001484285   0.00050553 0.000000001483526   0.00051208
 -0.01596000 0.000000001484262   0.00048957 0.000000001483526   0.00049621
 -0.01617400 0.000000001484384   0.00057187 0.000000001483525   0.00057860
 -0.01638800 0.000000001484001   0.00031369 0.000000001483525   0.00032051
 -0.01660200 0.000000001483980   0.00029935 0.000000001483525   0.00030625
 -0.01681600 0.000000001483958   0.00028511 0.000000001483525   0.00029210
 -0.01703000 0.000000001483936   0.00027027 0.000000001483525   0.00027735
 -0.01724400 0.000000001483918   0.00025797 0.000000001483525   0.00026513
 -0.01745800 0.000000001483898   0.00024450 0.000000001483525   0.00025175
 -0.01767200 0.000000001483882   0.00023330 0.000000001483525   0.00024065
 -0.01788600 0.000000001483902   0.00024719 0.000000001483524   0.00025462
 -0.01810000 0.000000001483882   0.00023353 0.000000001483524   0.00024105
 -0.01831400 0.000000001483827   0.00019649 0.000000001483524   0.00020410
 -0.01852800 0.000000001483811   0.00018565 0.000000001483524   0.00019335
 -0.01874200 0.000000001483771   0.00015886 0.000000001483524   0.00016665
 -0.01895600 0.000000001483752   0.00014593 0.000000001483524   0.00015381
 -0.01917000 0.000000001483734   0.00013356 0.000000001483524   0.00014152
 -0.01938400 0.000000001483736   0.00013538 0.000000001483524   0.00014343
 -0.01959800 0.000000001483721   0.00012529 0.000000001483523   0.00013343
 -0.01981200 0.000000001483704   0.00011350 0.000000001483523   0.00012173
 -0.02002600 0.000000001483687   0.00010196 0.000000001483523   0.00011028
 -0.02024000 0.000000001483671   0.00009106 0.000000001483523   0.00009947
 -0.02045400 0.000000001483670   0.00009096 0.000000001483523   0.00009946
 -0.02066800 0.000000001483628   0.00006257 0.000000001483523   0.00007116
 -0.02088200 0.000000001483597   0.00004142 0.000000001483523   0.00005009
 -0.02109600 0.000000001483592   0.00003820 0.000000001483522   0.00004696
 -0.02131000 0.000000001483576   0.00002718 0.000000001483522   0.00003604
 -0.02152400 0.000000001483555   0.00001330 0.000000001483522   0.00002224
 -0.02173800 0.000000001483515   0.00001397 0.000000001483522   0.00000494
 -0.02195200 0.000000001483704   0.00011336 0.000000001483522   0.00012247
 -0.02216600 0.000000001483686   0.00010168 0.000000001483522   0.00011089
 -0.02238000 0.000000001483466   0.00004690 0.000000001483522   0.00003761
 -0.02259400 0.000000001483654   0.00007961 0.000000001483522   0.00008899
 -0.02280800 0.000000001483637   0.00006866 0.000000001483521   0.00007813
 -0.02302200 0.000000001483622   0.00005822 0.000000001483521   0.00006778
 -0.02323600 0.000000001483606   0.00004733 0.000000001483521   0.00005698
 -0.02345000 0.000000001483588   0.00003540 0.000000001483521   0.00004514
 -0.02366400 0.000000001483573   0.00002522 0.000000001483521   0.00003504
 -0.02387800 0.000000001483557   0.00001432 0.000000001483521   0.00002423
 -0.02409200 0.000000001483542   0.00000428 0.000000001483521   0.00001428
 -0.02430600 0.000000001483528   0.00000507 0.000000001483520   0.00000502
 -0.02452000 0.000000001483514   0.00001444 0.000000001483520   0.00000425
 -0.02473400 0.000000001483499   0.00002459 0.000000001483520   0.00001432
 -0.02494800 0.000000001483292   0.00016426 0.000000001483520   0.00015391
 -0.02516200 0.000000001483469   0.00004463 0.000000001483520   0.00003418
 -0.02537600 0.000000001483454   0.00005477 0.000000001483520   0.00004424
 -0.02559000 0.000000001483441   0.00006379 0.000000001483520   0.00005317
 -0.02580400 0.000000001483427   0.00007336 0.000000001483520   0.00006265
 -0.02601800 0.000000001483227   0.00020814 0.000000001483519   0.00019734
 -0.02623200 0.000000001483510   0.00001713 0.000000001483519   0.00000624
 -0.02644600 0.000000001483493   0.00002839 0.000000001483519   0.00001741
 -0.02666000 0.000000001483487   0.00003245 0.000000001483519   0.00002138
 -0.02687400 0.000000001483472   0.00004297 0.000000001483519   0.00003181
 -0.02708800 0.000000001483458   0.00005227 0.000000001483519   0.00004102
 -0.02730200 0.000000001483453   0.00005558 0.000000001483519   0.00004425
 -0.02751600 0.000000001483439   0.00006488 0.000000001483519   0.00005346
 -0.02773000 0.000000001483426   0.00007396 0.000000001483518   0.00006245
 -0.02794400 0.000000001483414   0.00008173 0.000000001483518   0.00007014
 -0.02815800 0.000000001483432   0.00006944 0.000000001483518   0.00005775
 -0.02837200 0.000000001483381   0.00010414 0.000000001483518   0.00009236
 -0.02858600 0.000000001483369   0.00011247 0.000000001483518   0.00010061
 -0.02880000 0.000000001483538   0.00000160 0.000000001483518   0.00001355
 -0.02901400 0.000000001483522   0.00000940 0.000000001483518   0.00000264
 -0.02922800 0.000000001483509   0.00001807 0.000000001483517   0.00000594
 -0.02944200 0.000000001483495   0.00002733 0.000000001483517   0.00001512
 -0.02965600 0.000000001483483   0.00003566 0.000000001483517   0.00002335
 -0.02987000 0.000000001483468   0.00004530 0.000000001483517   0.00003290
 -0.03008400 0.000000001483457   0.00005265 0.000000001483517   0.00004017
 -0.03029800 0.000000001483304   0.00015629 0.000000001483517   0.00014372
 -0.03051200 0.000000001483314   0.00014894 0.000000001483517   0.00013628
 -0.03072600 0.000000001483281   0.00017160 0.000000001483517   0.00015886
 -0.03094000 0.000000001483269   0.00017930 0.000000001483516   0.00016647
 -0.03115400 0.000000001483254   0.00018955 0.000000001483516   0.00017663
 -0.03136800 0.000000001483241   0.00019873 0.000000001483516   0.00018572
 -0.03158200 0.000000001483257   0.00018779 0.000000001483516   0.00017469
 -0.03179600 0.000000001483221   0.00021189 0.000000001483516   0.00019870
 -0.03201000 0.000000001483210   0.00021954 0.000000001483516   0.00020627
 -0.03222400 0.000000001483199   0.00022697 0.000000001483516   0.00021360
 -0.03243800 0.000000001483188   0.00023424 0.000000001483515   0.00022079
 -0.03265200 0.000000001483204   0.00022365 0.000000001483515   0.00021011
 -0.03286600 0.000000001482944   0.00039866 0.000000001483515   0.00038503
 -0.03308000 0.000000001483184   0.00023717 0.000000001483515   0.00022345
 -0.03329400 0.000000001482921   0.00041388 0.000000001483515   0.00040008
 -0.03350800 0.000000001482911   0.00042098 0.000000001483515   0.00040709
 -0.03372200 0.000000001482900   0.00042818 0.000000001483515   0.00041420
 -0.03393600 0.000000001483125   0.00027701 0.000000001483515   0.00026294
 -0.03415000 0.000000001482875   0.00044512 0.000000001483514   0.00043097
 -0.03436400 0.000000001482865   0.00045186 0.000000001483514   0.00043762
 -0.03457800 0.000000001482911   0.00042120 0.000000001483514   0.00040687
 -0.03479200 0.000000001482900   0.00042812 0.000000001483514   0.00041370
 -0.03500600 0.000000001482891   0.00043425 0.000000001483514   0.00041974
 -0.03522000 0.000000001482874   0.00044596 0.000000001483514   0.00043136
 -0.03543400 0.000000001482859   0.00045585 0.000000001483514   0.00044117
 -0.03564800 0.000000001482849   0.00046274 0.000000001483514   0.00044796
 -0.03586200 0.000000001482839   0.00046924 0.000000001483513   0.00045437
 -0.03607600 0.000000001482812   0.00048757 0.000000001483513   0.00047262
 -0.03629000 0.000000001482802   0.00049458 0.000000001483513   0.00047954
 -0.03650400 0.000000001482792   0.00050126 0.000000001483513   0.00048613
 -0.03671800 0.000000001482781   0.00050835 0.000000001483513   0.00049313
 -0.03693200 0.000000001482772   0.00051448 0.000000001483513   0.00049918
 -0.03714600 0.000000001482763   0.00052094 0.000000001483513   0.00050555
 -0.03736000 0.000000001482944   0.00039874 0.000000001483512   0.00038326
 -0.03757400 0.000000001482661   0.00058917 0.000000001483512   0.00057360
 -0.03778800 0.000000001482652   0.00059538 0.000000001483512   0.00057972
 -0.03800200 0.000000001482643   0.00060154 0.000000001483512   0.00058579
 -0.03821600 0.000000001482633   0.00060808 0.000000001483512   0.00059224
 -0.03843000 0.000000001482897   0.00043069 0.000000001483512   0.00041477
 -0.03864400 0.000000001482613   0.00062180 0.000000001483512   0.00060579
 -0.03885800 0.000000001482605   0.00062732 0.000000001483512   0.00061122
 -0.03907200 0.000000001482869   0.00044936 0.000000001483511   0.00043317
 -0.03928600 0.000000001482860   0.00045533 0.000000001483511   0.00043905
 -0.03950000 0.000000001482578   0.00064560 0.000000001483511   0.00062924
 -0.03971400 0.000000001482568   0.00065203 0.000000001483511   0.00063558
 -0.03992800 0.000000001482561   0.00065683 0.000000001483511   0.00064029
 -0.04014200 0.000000001482579   0.00064458 0.000000001483511   0.00062795
 -0.04035600 0.000000001482572   0.00064947 0.000000001483511   0.00063275
 -0.04057000 0.000000001482561   0.00065710 0.000000001483511   0.00064029
 -0.04078400 0.000000001482552   0.00066301 0.000000001483510   0.00064612
 -0.04099800 0.000000001482545   0.00066793 0.000000001483510   0.00065095
 -0.04121200 0.000000001482537   0.00067287 0.000000001483510   0.00065581
 -0.04142600 0.000000001482529   0.00067839 0.000000001483510   0.00066124
 -0.04164000 0.000000001482523   0.00068259 0.000000001483510   0.00066535
 -0.04185400 0.000000001482415   0.00075509 0.000000001483510   0.00073776
 -0.04206800 0.000000001482407   0.00076072 0.000000001483510   0.00074330
